,time,x,y,theta
0,0.0318808555603,0.805450081825,0.0298540890217,-1.43418002129
1,0.0849239826202,0.804922997952,0.0284372083843,-1.52092456818
2,0.143169879913,0.806094408035,0.0288633760065,-1.49976742268
3,0.198240995407,0.80802834034,0.0220348294824,-1.57712316513
4,0.253762960434,0.807754397392,0.0230300109833,-1.5544064045
5,0.309878826141,0.812038183212,0.023813335225,-1.47102880478
6,0.364080905914,0.814327538013,0.0218668896705,-1.48297357559
7,0.419583797455,0.816065907478,0.0176919661462,-1.57706713676
8,0.475142002106,0.817121267319,0.0174272824079,-1.66187119484
9,0.531862974167,0.813963651657,0.0210685823113,-1.48987400532
10,0.584334850311,0.812189638615,0.02513445355,-1.47847616673
11,0.638767957687,0.810606896877,0.0232174489647,-1.54560112953
12,0.6908659935,0.806001722813,0.0290665589273,-1.4217761755
13,0.743985891342,0.804656386375,0.0282320417464,-1.49440562725
14,0.796727895737,0.803678631783,0.0238604862243,-1.55854296684
15,0.85111784935,0.806023240089,0.0237689260393,-1.56457984447
16,0.903687953949,0.805742681026,0.0239813216031,-1.56104469299
17,0.958050966263,0.806855618954,0.0221353117377,-1.54317998886
18,1.01218390465,0.805232226849,0.0212050117552,-1.5214921236
19,1.06494188309,0.805592834949,0.0213188622147,-1.50637531281
20,1.11795496941,0.805400788784,0.025190487504,-1.46108138561
21,1.17246198654,0.804974317551,0.0243534464389,-1.50824844837
22,1.22575378418,0.806796371937,0.0211160797626,-1.55849289894
23,1.27874183655,0.803761065006,0.0240738559514,-1.4976490736
24,1.33306097984,0.804886162281,0.0236675944179,-1.52342021465
25,1.38696599007,0.804477214813,0.0243602115661,-1.50384581089
26,1.44285082817,0.805094301701,0.0270707719028,-1.47248029709
27,1.49756884575,0.80499458313,0.0276543628424,-1.48116242886
28,1.55337500572,0.805955648422,0.024165360257,-1.55018901825
29,1.6138818264,0.804589688778,0.0264260172844,-1.50808846951
30,1.66523480415,0.806791424751,0.0259072259068,-1.44880330563
31,1.72031593323,0.807673215866,0.0233976766467,-1.53603160381
32,1.77538585663,0.809323728085,0.0217743199319,-1.60073471069
33,1.83151578903,0.809206604958,0.0237308796495,-1.54483449459
34,1.88503098488,0.811616957188,0.0197189692408,-1.55040621758
35,1.94206786156,0.811476528645,0.0171305369586,-1.55784475803
36,1.99523496628,0.8124807477,0.0155374128371,-1.56449437141
37,2.04750084877,0.813269019127,0.0148530267179,-1.54751551151
38,2.10014200211,0.816853821278,0.025939989835,-1.43029773235
39,2.15179681778,0.813702464104,0.0175791028887,-1.59992063046
40,2.21160387993,0.815667629242,0.0164126567543,-1.74363327026
41,2.27201890945,0.808520376682,0.0108576165512,-1.6216584444
42,2.3277258873,0.809038758278,0.008814599365,-1.61197280884
43,2.38179779053,0.807535111904,0.00885770656168,-1.50467038155
44,2.43799996376,0.807393848896,0.00375272613019,-1.60776150227
45,2.49314689636,0.807163417339,0.003395230975,-1.69678795338
46,2.54893994331,0.806609928608,0.00737145682797,-1.51977479458
47,2.60138082504,0.806688725948,0.00564226601273,-1.58686125278
48,2.65472197533,0.805995285511,0.00506345462054,-1.64058971405
49,2.70872378349,0.809250831604,-0.00184338574763,-1.66417860985
50,2.763920784,0.809524297714,-0.00365069485269,-1.70232260227
51,2.82036590576,0.81056034565,0.00889130309224,-1.46026849747
52,2.87490582466,0.810994803905,0.00917451549321,-1.34022772312
53,2.93224787712,0.816214382648,0.00905150640756,-1.56501924992
54,2.99077391624,0.815449237823,0.00964303780347,-1.642562747
55,3.04686498642,0.814914047718,0.0163329746574,-1.49337339401
56,3.10461378098,0.813041329384,0.0104922056198,-1.60904657841
57,3.15931081772,0.813102006912,0.0107702668756,-1.70792722702
58,3.21525478363,0.813705265522,0.015896640718,-1.51967251301
59,3.27321600914,0.812643229961,0.0181370209903,-1.47476124763
60,3.3289167881,0.811287105083,0.019395140931,-1.543825984
61,3.38357496262,0.813427269459,0.0217747855932,-1.5466940403
62,3.44371581078,0.81757491827,0.0183815937489,-1.52087926865
63,3.49992585182,0.814404010773,0.0203152410686,-1.46408236027
64,3.55546092987,0.812579095364,0.0235135778785,-1.48275184631
65,3.60928893089,0.810297310352,0.0237706471235,-1.51073467731
66,3.66359782219,0.814617455006,0.0164625160396,-1.60909080505
67,3.71675086021,0.814027667046,0.0169710870832,-1.69710552692
68,3.77198386192,0.810930609703,0.0206810738891,-1.49476349354
69,3.82644987106,0.814069509506,0.0220935977995,-1.50474822521
70,3.88073277473,0.814217329025,0.0198346357793,-1.55400979519
71,3.93442487717,0.816406786442,0.0171942561865,-1.63135683537
72,3.98978495598,0.817285120487,0.0172890014946,-1.7042081356
73,4.04932689667,0.817540645599,0.0124257355928,-1.62019145489
74,4.10274600983,0.816231429577,0.0160845126957,-1.55690968037
75,4.15611696243,0.814278781414,0.0190745461732,-1.51041793823
76,4.20950889587,0.815856993198,0.0147882755846,-1.59926486015
77,4.26488399506,0.816953420639,0.0154668772593,-1.67488062382
78,4.31834983826,0.814139902592,0.0202668178827,-1.44952630997
79,4.37240695953,0.813975095749,0.0210921466351,-1.51909554005
80,4.4283759594,0.816470324993,0.0191038381308,-1.56775546074
81,4.48053979874,0.813686966896,0.0172640457749,-1.62270987034
82,4.53312182426,0.812643527985,0.0178123526275,-1.67523348331
83,4.58797979355,0.816643476486,0.0120887774974,-1.61548125744
84,4.64405679703,0.816100299358,0.0164709053934,-1.53607296944
85,4.69784784317,0.814188957214,0.018507367,-1.52142715454
86,4.75146579742,0.813842892647,0.019418399781,-1.47885715961
87,4.80823278427,0.817906677723,0.0146185690537,-1.59794783592
88,4.86168885231,0.818375229836,0.0142213925719,-1.7005405426
89,4.9145989418,0.816651165485,0.0125474715605,-1.57670104504
90,4.97177886963,0.812454402447,0.0152756981552,-1.55643486977
91,5.02720880508,0.815956890583,0.0210712645203,-1.45456314087
92,5.08415293694,0.817130088806,0.0160127002746,-1.57059705257
93,5.13787484169,0.818291068077,0.016681374982,-1.66034674644
94,5.19126391411,0.817674279213,0.017231553793,-1.53529918194
95,5.24479484558,0.81383818388,0.0202245656401,-1.50641679764
96,5.2985188961,0.816051959991,0.0160984247923,-1.58516776562
97,5.3534078598,0.817142724991,0.0155850434676,-1.65233099461
98,5.40824198723,0.812311828136,0.0237144976854,-1.40922474861
99,5.4628508091,0.81455296278,0.0189921315759,-1.55910050869
100,5.51640677452,0.813834071159,0.0199314001948,-1.68303751945
101,5.57324385643,0.81625443697,0.0217783749104,-1.49973797798
102,5.62779092789,0.811003506184,0.0259365551174,-1.44652020931
103,5.68142390251,0.813926935196,0.0222088713199,-1.55266690254
104,5.73524689674,0.810903429985,0.0265087448061,-1.47908127308
105,5.78967094421,0.808612048626,0.0291931349784,-1.48362100124
106,5.84289479256,0.808982729912,0.0248465780169,-1.55053806305
107,5.89730286598,0.80940335989,0.0247421059757,-1.56298744678
108,5.9502120018,0.810154974461,0.0264217723161,-1.52147483826
109,6.00404977798,0.810372054577,0.0266306251287,-1.49266266823
110,6.06228780746,0.813840806484,0.0250298082829,-1.52606391907
111,6.11737298965,0.812384843826,0.0274670068175,-1.46983385086
112,6.17492794991,0.809584259987,0.0325325392187,-1.42305064201
113,6.23333477974,0.807411015034,0.0322540067136,-1.48972845078
114,6.29284977913,0.803980112076,0.0305326655507,-1.48230624199
115,6.35291981697,0.805680453777,0.0278433822095,-1.52781617641
116,6.40481090546,0.807410776615,0.0221628081053,-1.57085072994
117,6.45954179764,0.805984318256,0.0223350264132,-1.54653275013
118,6.51845884323,0.806938648224,0.020366910845,-1.46707391739
119,6.58012580872,0.804061949253,0.0189279671758,-1.43198645115
120,6.63838982582,0.803367912769,0.0262788292021,-1.34152984619
121,6.69451594353,0.802849709988,0.0326407626271,-1.31798493862
122,6.75013995171,0.804624855518,0.0339862592518,-1.34719777107
123,6.80034089088,0.804779350758,0.0350149869919,-1.37002980709
124,6.85351681709,0.794823408127,0.0439529083669,-1.08928596973
125,6.90616893768,0.792946219444,0.0480597652495,-0.940720498562
126,6.9593038559,0.789570629597,0.0565365925431,-0.956020653248
127,7.01418590546,0.77494853735,0.0742119327188,-0.726083517075
128,7.06655883789,0.770525813103,0.0806503146887,-0.522353589535
129,7.11916899681,0.758569896221,0.0945849642158,-0.602022886276
130,7.17324399948,0.750138282776,0.102700375021,-0.570550501347
131,7.22581481934,0.739998400211,0.111678853631,-0.454205691814
132,7.27852797508,0.73365598917,0.118399046361,-0.466689765453
133,7.3312997818,0.732232630253,0.120742820203,-0.425263524055
134,7.38464283943,0.728441476822,0.126428470016,-0.381374180317
135,7.43772482872,0.734543800354,0.133313894272,-0.375119805336
136,7.49508881569,0.731936335564,0.136820465326,-0.249972701073
137,7.54829597473,0.726890921593,0.139628887177,-0.294539421797
138,7.60118699074,0.726909399033,0.139909818769,-0.265078783035
139,7.65416884422,0.726501762867,0.140769839287,-0.211240559816
140,7.70748877525,0.722507417202,0.145345941186,-0.16074681282
141,7.76087188721,0.719444990158,0.149851694703,-0.111309982836
142,7.81404900551,0.717531979084,0.154368519783,-0.060564044863
143,7.86969184875,0.714327633381,0.158201754093,-0.00791587680578
144,7.92280578613,0.711525022984,0.162671774626,0.0423901639879
145,7.97591590881,0.719170629978,0.162582650781,-0.00954663660377
146,8.03015899658,0.717600047588,0.166418462992,0.0179906412959
147,8.08324193954,0.741254925728,0.164558917284,-0.0351158902049
148,8.13624191284,0.742684185505,0.16643358767,-0.0507083237171
149,8.19217085838,0.719988584518,0.164660319686,0.0327736549079
150,8.24489378929,0.717968642712,0.168114960194,0.0721302852035
151,8.29913687706,0.716850221157,0.170496076345,0.112469561398
152,8.35364198685,0.715667724609,0.172777056694,0.152705773711
153,8.40717196465,0.713540792465,0.174467146397,0.192319467664
154,8.46052789688,0.701602876186,0.165980130434,0.0434167943895
155,8.51403188705,0.698463499546,0.166861474514,0.0337962694466
156,8.56658887863,0.695476710796,0.16775739193,0.0245514977723
157,8.61938691139,0.693230330944,0.161396130919,0.028034793213
158,8.67280697823,0.688315808773,0.161922991276,0.0236702673137
159,8.72670984268,0.69883620739,0.157925486565,0.00896948482841
160,8.78118681908,0.698074698448,0.15807582438,-0.00164217595011
161,8.83411884308,0.696712017059,0.157949432731,-0.0113670676947
162,8.88749480247,0.690014541149,0.123591706157,0.0753630027175
163,8.94106984138,0.687420189381,0.118501700461,0.104710154235
164,8.99389791489,0.686258912086,0.113956645131,0.133926257491
165,9.0465388298,0.690710186958,0.0686125159264,0.114857114851
166,9.10004782677,0.688576161861,0.05816052109,0.124725490808
167,9.15397977829,0.699508786201,0.0138671258464,0.168549001217
168,9.20674395561,0.70005440712,-0.00144968135282,0.197340413928
169,9.26023292542,0.710838198662,-0.0392698533833,0.189165383577
170,9.3130838871,0.711790382862,-0.0569028407335,0.197578191757
171,9.36618900299,0.737026751041,-0.101081334054,0.171932861209
172,9.420814991,0.75037163496,-0.135853931308,0.218243211508
173,9.47612190247,0.765905678272,-0.175667822361,0.258525907993
174,9.530397892,0.773652017117,-0.210782542825,0.359855502844
175,9.58286786079,0.781365156174,-0.244500726461,0.354534387589
176,9.63727283478,0.793410539627,-0.280231446028,0.333428114653
177,9.69203591347,0.808483421803,-0.313813775778,0.27482187748
178,9.7459859848,0.820728480816,-0.345511287451,0.32073789835
179,9.80084180832,0.833675503731,-0.379589021206,0.35607945919
180,9.85519695282,0.84779715538,-0.40874812007,0.351764708757
181,9.90960788727,0.865862190723,-0.437613338232,0.384287148714
182,9.96344995499,0.88303989172,-0.462136596441,0.345165520906
183,10.0169949532,0.901665329933,-0.484263509512,0.36247369647
184,10.0723679066,0.921949207783,-0.505586147308,0.336564362049
185,10.125854969,0.948104560375,-0.524312734604,0.341092199087
186,10.1790738106,0.971572101116,-0.539674043655,0.348729342222
187,10.2335159779,0.998529076576,-0.551566183567,0.326214671135
188,10.2865607738,1.02934265137,-0.558013916016,0.299439966679
189,10.3421959877,1.05650556087,-0.567126214504,0.400767236948
190,10.3952357769,1.07842874527,-0.584576368332,0.484735697508
191,10.4496769905,1.10305261612,-0.584137618542,0.41013610363
192,10.5045258999,1.13207292557,-0.583033978939,0.359465718269
193,10.558604002,1.16499745846,-0.583871245384,0.283083796501
194,10.6132309437,1.19575536251,-0.581511557102,0.242036491632
195,10.6715049744,1.22899377346,-0.577646136284,0.275414198637
196,10.7219889164,1.24640679359,-0.571000218391,0.349883556366
197,10.7805387974,1.27581083775,-0.565109729767,0.222004935145
198,10.8353779316,1.30162990093,-0.567990720272,0.120421946049
199,10.8901658058,1.34048640728,-0.553628981113,0.0702556744218
200,10.9456338882,1.3691573143,-0.553383350372,-0.00312696862966
201,11.0020649433,1.3939063549,-0.527849078178,0.250155925751
202,11.0563337803,1.41710865498,-0.513573646545,0.282714307308
203,11.1136848927,1.44575679302,-0.507950425148,0.324443608522
204,11.1717238426,1.44477832317,-0.477035433054,0.333956748247
205,11.2244749069,1.46812570095,-0.467007905245,0.356764912605
206,11.2799229622,1.47776961327,-0.430416554213,0.193594485521
207,11.334100008,1.49960112572,-0.417366743088,0.113520860672
208,11.3875739574,1.51343488693,-0.361264646053,0.402509778738
209,11.4414758682,1.50755596161,-0.352689862251,0.360406607389
210,11.4959537983,1.50950598717,-0.326780200005,0.499298363924
211,11.5507018566,1.52884364128,-0.301297903061,0.37552177906
212,11.6067979336,1.54809999466,-0.270375818014,0.313525825739
213,11.6638958454,1.56545948982,-0.236270025373,0.347169011831
214,11.7180168629,1.58030462265,-0.208469584584,0.305195063353
215,11.7739708424,1.5894318819,-0.173561811447,0.35683208704
216,11.8305358887,1.59200251102,-0.141750872135,0.393537461758
217,11.8825910091,1.58675253391,-0.113037765026,0.51957821846
218,11.9369878769,1.57405233383,-0.0850490480661,0.607936680317
219,11.9961929321,1.57984638214,-0.0541347488761,0.70619726181
220,12.0523238182,1.55560171604,-0.0215949807316,0.492512077093
221,12.1088500023,1.55592179298,0.00755046494305,0.2504799366
222,12.1633808613,1.55765974522,0.0362753905356,0.0293706078082
223,12.2172758579,1.54027366638,0.0638260692358,0.482212781906
224,12.2747018337,1.53526163101,0.083329975605,0.523769378662
225,12.3316237926,1.51737380028,0.109654262662,0.523722887039
226,12.3846027851,1.5176846981,0.142816111445,0.440708696842
227,12.4388849735,1.5114814043,0.17726944387,0.455139219761
228,12.4935908318,1.5071669817,0.205826088786,0.459392756224
229,12.5525269508,1.49191701412,0.227197080851,0.336870312691
230,12.6038639545,1.47790694237,0.251466363668,0.31815892458
231,12.6591949463,1.46495807171,0.280217528343,0.446568727493
232,12.7167618275,1.4505699873,0.312088042498,0.450616121292
233,12.7761769295,1.43716466427,0.341103166342,0.480324715376
234,12.8370089531,1.42436444759,0.368922799826,0.443648159504
235,12.8962469101,1.41279172897,0.397974073887,0.457640588284
236,12.9501128197,1.39806032181,0.418893367052,0.445734500885
237,13.0038998127,1.38720166683,0.448800176382,0.458335191011
238,13.056704998,1.37729668617,0.473405092955,0.423495799303
239,13.1094977856,1.36146485806,0.488361179829,0.370446622372
240,13.1617357731,1.34973573685,0.515642106533,0.449826836586
241,13.2146878242,1.33792245388,0.540192127228,0.513968169689
242,13.2694377899,1.30462658405,0.551584720612,0.558144450188
243,13.3221600056,1.29064083099,0.573460161686,0.610094487667
244,13.3767647743,1.26499247551,0.586324095726,0.354151368141
245,13.4322338104,1.24928855896,0.607833981514,0.233382642269
246,13.4839129448,1.24581754208,0.634930074215,0.320013344288
247,13.5368578434,1.23212122917,0.655798733234,0.31601062417
248,13.589758873,1.21605813503,0.678457677364,0.41726142168
249,13.6434559822,1.20477795601,0.698683798313,0.352316886187
250,13.6964638233,1.18939173222,0.714619398117,0.25292250514
251,13.7505409718,1.1748663187,0.731698572636,0.268239974976
252,13.8086829185,1.15963029861,0.753340184689,0.270528644323
253,13.8637979031,1.12893283367,0.771042585373,0.179806187749
254,13.9172489643,1.09936547279,0.780998647213,0.263575047255
255,13.9703109264,1.0791233778,0.798946678638,0.335280150175
256,14.0235857964,1.06225192547,0.815597295761,0.204273223877
257,14.0770688057,1.03961181641,0.82857555151,0.191467598081
258,14.1313798428,1.01715564728,0.843535721302,0.232815086842
259,14.1841928959,0.98744148016,0.854873299599,0.189166516066
260,14.2410919666,0.959352016449,0.862783908844,0.185965240002
261,14.2953197956,0.936448514462,0.871796667576,0.19091886282
262,14.3578999043,0.908843159676,0.879900932312,0.18634070456
263,14.4154219627,0.890078485012,0.895434200764,0.155660957098
264,14.4755029678,0.871554195881,0.906162500381,0.165095210075
265,14.5294327736,0.857155323029,0.918907463551,0.141416728497
266,14.5845329762,0.84373575449,0.934605300426,0.164136201143
267,14.6401817799,0.827611207962,0.949564218521,0.137309253216
268,14.69520998,0.807068526745,0.959359586239,0.18164485693
269,14.747677803,0.791066706181,0.964544475079,0.147770538926
270,14.8010089397,0.773907124996,0.96938765049,0.213259741664
271,14.8578698635,0.758724272251,0.973661720753,0.15260912478
272,14.9124310017,0.737826049328,0.976124763489,0.171263709664
273,14.9706947803,0.722998976707,0.976949989796,0.154139444232
274,15.0308499336,0.708142995834,0.97394657135,0.18175201118
275,15.0852367878,0.693865001202,0.968612790108,0.112131051719
276,15.1408917904,0.682339370251,0.964823007584,0.115776002407
277,15.1979408264,0.66298532486,0.954645931721,0.129202365875
278,15.2506399155,0.644012272358,0.940501689911,0.103147156537
279,15.3073658943,0.622251152992,0.926763296127,0.0871282294393
280,15.3640468121,0.604010224342,0.909267246723,0.0206898953766
281,15.4197318554,0.580199956894,0.890374660492,0.0793916881084
282,15.4765679836,0.557635366917,0.869335412979,0.035365242511
283,15.529173851,0.533460319042,0.846659779549,0.0383680015802
284,15.5819368362,0.508623421192,0.817874133587,0.0317604094744
285,15.6360778809,0.501462876797,0.796589970589,-0.0604598037899
286,15.6956307888,0.479820907116,0.765976071358,-0.0255652200431
287,15.7569189072,0.466044813395,0.738613009453,-0.0578697994351
288,15.8139808178,0.447392970324,0.717505037785,-0.0839169323444
289,15.8689129353,0.428881704807,0.678412854671,0.0352100245655
290,15.9213118553,0.410168617964,0.656095683575,0.0874194204807
291,15.9740729332,0.415715456009,0.625173330307,-0.0381178632379
292,16.0259277821,0.415701419115,0.595581889153,-0.0633483976126
293,16.078168869,0.410211145878,0.56469398737,-0.0429955758154
294,16.1311368942,0.417431890965,0.539945065975,-0.109419241548
295,16.1849908829,0.416543573141,0.508131921291,-0.0806640014052
296,16.2377688885,0.412029415369,0.475539386272,-0.057739418
297,16.2934679985,0.403888434172,0.44112098217,-0.0652870610356
298,16.3465549946,0.400981038809,0.410670340061,-0.0625358894467
299,16.4027988911,0.401872128248,0.38309687376,-0.0615602992475
300,16.455726862,0.399049699306,0.356229007244,-0.0670219734311
301,16.5108947754,0.398865014315,0.325169205666,-0.0687743127346
302,16.5645978451,0.400447934866,0.297218084335,-0.0597983598709
303,16.6172699928,0.40005594492,0.269760072231,-0.0636383667588
304,16.6733708382,0.404356956482,0.244579300284,-0.0510512143373
305,16.7265768051,0.402969568968,0.217405408621,-0.0405021347106
306,16.7796487808,0.402738511562,0.189970850945,-0.030203634873
307,16.8328227997,0.417524963617,0.180357128382,-0.0289052184671
308,16.8864629269,0.422456353903,0.165955811739,-0.00145460071508
309,16.9395089149,0.425920933485,0.149067699909,-0.0463092848659
310,16.9924778938,0.431638985872,0.131895855069,-0.0266326367855
311,17.046656847,0.433261156082,0.115876212716,-0.0529452487826
312,17.1015889645,0.435957998037,0.100204564631,-0.0683223605156
313,17.1547648907,0.435453683138,0.0875133350492,-0.080240406096
314,17.209717989,0.435061097145,0.0757240653038,-0.0707122758031
315,17.2635269165,0.434078335762,0.0640169903636,-0.0572622306645
