,time,x,y,theta
0,0.0347170829773,1.43730708443,0.135090468409,0.992716916892
1,0.0865399837494,1.433874371,0.135486513213,1.02694966534
2,0.139518022537,1.44348140818,0.133502610053,0.928246280664
3,0.191027879715,1.43859959163,0.135388596742,0.989498726778
4,0.243419885635,1.43445706447,0.134825928591,0.985677833641
5,0.295511007309,1.42928495371,0.138834939715,1.00103577501
6,0.348253965378,1.42424716499,0.143150551411,1.01979248888
7,0.400331020355,1.4221705515,0.142129019425,0.995801563924
8,0.452395915985,1.42933009983,0.141999480065,0.919739245402
9,0.504452943802,1.42659255318,0.143418777971,1.01479537891
10,0.556916952133,1.42225963559,0.141442006128,1.00313637037
11,0.609723091125,1.43285221407,0.140501696458,0.927575870015
12,0.662803888321,1.42673649939,0.138665455042,1.00737768663
13,0.715301990509,1.42344987133,0.139983995958,1.01816331919
14,0.767688035965,1.42367813612,0.138957885034,0.990366933032
15,0.819539070129,1.42202777671,0.137719554924,0.99945428164
16,0.871131896973,1.42064031261,0.138754613829,1.00602682456
17,0.922879934311,1.41783612187,0.138175208774,1.01908141932
18,0.98700594902,1.41410455517,0.137947019948,1.01642475444
19,1.0392229557,1.41337344121,0.138013814159,0.999861606008
20,1.08969902992,1.41384313585,0.137889110526,1.00658747932
21,1.14104294777,1.41661598265,0.137970348995,0.998302721205
22,1.19499993324,1.42607535817,0.136816387741,0.961880231901
23,1.24632310867,1.42474918567,0.137120057262,0.972620637973
24,1.29868602753,1.42474279231,0.136954417066,1.00308650971
25,1.35033106804,1.42505591284,0.137139848634,0.999146685112
26,1.40269804001,1.43897975097,0.135343015472,0.934467789492
27,1.45521306992,1.43356528306,0.137489430487,1.01628954168
28,1.50788807869,1.43003842965,0.138193283537,1.03538009226
29,1.56023597717,1.43165591986,0.147843926705,1.08030456043
30,1.61302900314,1.42615050857,0.148009382149,1.01543196936
31,1.66632294655,1.42214284817,0.15104599307,1.01821832345
32,1.71915698051,1.42556981525,0.150052828792,0.973452765548
33,1.77167701721,1.42425291842,0.149328357475,0.990334544905
34,1.82457995415,1.42192651653,0.149044274759,1.0237365443
35,1.87683200836,1.43104620058,0.147047575263,0.967211051558
36,1.9294989109,1.43352381382,0.144488970955,0.968600442469
37,1.98157691956,1.43643440495,0.14209094467,0.957610978712
38,2.03434610367,1.44083508149,0.140481911829,0.935261902277
39,2.08669900894,1.43614915027,0.138892396628,0.976631237036
40,2.13872504234,1.43408839378,0.138398117972,1.02270149876
41,2.19039201736,1.44007573558,0.139208061039,0.965335567154
42,2.24309492111,1.43502012677,0.142009193804,0.999421619143
43,2.29628396034,1.42998110143,0.140914215281,0.99506384443
44,2.34848999977,1.43559198965,0.140946921166,0.978539950954
45,2.4007101059,1.44149782854,0.139109374031,0.952796326529
46,2.4522819519,1.4368258291,0.1408177709,0.990047391673
47,2.50529694557,1.4399177755,0.141228789422,0.965245205125
48,2.55728793144,1.43692421625,0.140689761965,1.00449339394
49,2.60922002792,1.43388371552,0.14080242262,1.01047411357
50,2.66184091568,1.42883378252,0.140662180234,1.01795223517
51,2.71480107307,1.4366031915,0.138736163143,0.942640281419
52,2.76839494705,1.43003248395,0.138970785186,1.00619450826
53,2.82111501694,1.42514438644,0.139337117622,1.01729765877
54,2.87304091454,1.41996975194,0.138814066802,0.991679038539
55,2.92508411407,1.41563646067,0.138549027274,1.03735252902
56,2.97906494141,1.42161773769,0.135560547739,1.0603353265
57,3.03058099747,1.41069608513,0.132502792396,1.0991998452
58,3.0846259594,1.3991011841,0.130534173613,1.12993379465
59,3.1436290741,1.39598444328,0.121203448309,1.11593765524
60,3.20454788208,1.37590129803,0.133444887236,1.32069653449
61,3.25538110733,1.36288066193,0.130201672876,1.41970628789
62,3.30673789978,1.35378128234,0.125248277837,1.32625045387
63,3.35787796974,1.34684861153,0.12520092885,1.31544558078
64,3.40962290764,1.30630183796,0.123940200154,1.38557823264
65,3.46198701859,1.29446273208,0.121961521344,1.41671248038
66,3.5136590004,1.28249749938,0.120768244215,1.44817329743
67,3.56454396248,1.23912484472,0.0940983478596,1.41319534924
68,3.62955307961,1.2244390125,0.0902931760908,1.41842683857
69,3.67648792267,1.16046614285,0.0708687414474,1.47928848191
70,3.727394104,1.13978548688,0.0658282260851,1.5149261545
71,3.7783510685,1.07525431795,0.048657202023,1.43967122407
72,3.82995390892,1.04968400437,0.0419281742607,1.41640517277
73,3.8827290535,0.99928677485,0.03232648377,1.4379347531
74,3.93441700935,0.947479640199,0.020390815649,1.4322144513
75,3.98583102226,0.924381194109,0.0172208085387,1.45958329121
76,4.03804206848,0.897611512901,0.00826913016828,1.41760627437
77,4.08898496628,0.867509867918,0.00458735499592,1.46213143971
78,4.14084100723,0.841475964213,0.00214866778072,1.48122089027
79,4.19319605827,0.812216339649,-0.00160983295357,1.49357205063
80,4.24492502213,0.785869897302,-0.00440287930128,1.46477307553
81,4.29695796967,0.764257939754,-0.00656240467143,1.48797345072
82,4.34859108925,0.740789110021,-0.00986088345833,1.50508773683
83,4.39997911453,0.710608287224,-0.0142359086909,1.51043894997
84,4.45179510117,0.702811475056,-0.0142199497963,1.4872640088
85,4.50287890434,0.683717153462,-0.016391715833,1.4821408671
86,4.55401110649,0.667141235722,-0.0188679278184,1.50670043727
87,4.6054289341,0.651838771366,-0.0216011929589,1.47172252141
88,4.65741491318,0.635280271149,-0.0266806383142,1.49230945829
89,4.70847511292,0.617372577483,-0.0324903016955,1.50108399585
90,4.76065301895,0.60547791583,-0.0399563321139,1.48150352447
91,4.8122010231,0.593375623996,-0.0472963729644,1.45090180491
92,4.86351108551,0.583552776345,-0.0567320740605,1.47483321638
93,4.91578698158,0.57720396965,-0.0671670710193,1.42813057104
94,4.96734690666,0.560719274692,-0.0735331160819,1.39502943924
95,5.01978588104,0.556443492616,-0.0886738761381,1.49387865951
96,5.07114195824,0.553815175717,-0.104041824423,1.51212261485
97,5.12269210815,0.556162821412,-0.122924256751,1.41261688272
98,5.17437911034,0.544564813521,-0.131312943638,1.34057057715
99,5.22642302513,0.548851680782,-0.152240034949,1.49875182955
100,5.27866888046,0.537126192339,-0.16299085917,1.54830822173
101,5.32967305183,0.546519744449,-0.192213790748,1.48319500283
102,5.38206410408,0.541286641786,-0.205480711379,1.47119261955
103,5.43331098557,0.549056802863,-0.237534861681,1.52271804141
104,5.48552107811,0.54301351099,-0.251649536394,1.54421163143
105,5.53599905968,0.553833177165,-0.284471257839,1.54050483453
106,5.58727407455,0.5497358564,-0.29811892918,1.54743872243
107,5.63918709755,0.56495264395,-0.33172114304,1.51332778058
108,5.69041705132,0.571308938874,-0.355661041432,1.52179596782
109,5.74165797234,0.577198873673,-0.379013526131,1.52987942871
110,5.79349708557,0.581440453113,-0.401973179578,1.55287229669
111,5.84927988052,0.588765003636,-0.424996108494,1.54526615229
112,5.90237998962,0.595085175142,-0.449123689881,1.5771565264
113,5.95297503471,0.601272327162,-0.473638323517,1.60223445352
114,6.00473809242,0.606892290468,-0.500045161695,1.58353496291
115,6.05632805824,0.61204369393,-0.523188429067,1.54877366245
116,6.10799908638,0.619165114482,-0.550929288022,1.6031306641
117,6.15969395638,0.623956869983,-0.577609311256,1.59501975147
118,6.21081709862,0.63231416337,-0.602433190211,1.59536497264
119,6.26207208633,0.642079277483,-0.629034073057,1.58359942533
120,6.31352806091,0.652285826346,-0.655282571727,1.58588287295
121,6.36480998993,0.66165243052,-0.68023698332,1.6014712376
122,6.41743803024,0.675715753798,-0.7102287578,1.58257993428
123,6.46870303154,0.683393373393,-0.725566122018,1.6081353214
124,6.52036309242,0.692821410859,-0.747047440012,1.6234644374
125,6.57158708572,0.701533954595,-0.767841352734,1.66842229542
126,6.62292504311,0.714543327911,-0.788648936446,1.68603437199
127,6.67543411255,0.726256918769,-0.807250673971,1.68421645351
128,6.72711801529,0.738603870286,-0.82347329419,1.69334682926
129,6.7790620327,0.754411435697,-0.84053181694,1.65751112428
130,6.83025598526,0.772657765238,-0.858357271529,1.64273119422
131,6.8885269165,0.787349756365,-0.874283245773,1.60994878453
132,6.94070696831,0.816928709492,-0.894332290478,1.61864727433
133,6.99190592766,0.831055958892,-0.903227183219,1.63749775186
134,7.04355192184,0.851158330965,-0.916413609061,1.63745516966
135,7.09568309784,0.872237607921,-0.927415753636,1.65430542028
136,7.14772891998,0.894610755483,-0.936691112091,1.63016317099
137,7.1991250515,0.912969785177,-0.954667900282,1.6634514555
138,7.25165700912,0.934958910595,-0.961064719175,1.6345383632
139,7.30359792709,0.967157921419,-0.969974404468,1.68628679485
140,7.35511302948,0.975928405135,-0.972135241192,1.7071870232
141,7.40710902214,0.9967307079,-0.974713776192,1.73769264081
142,7.45896887779,1.01998778102,-0.975574940053,1.72637398345
143,7.50998401642,1.04189899042,-0.975037938953,1.71444090913
144,7.56205511093,1.063507846,-0.975214851839,1.7424058968
145,7.61324691772,1.08319350372,-0.973591513247,1.80205231954
146,7.6653149128,1.10870378927,-0.972120411043,1.78753553413
147,7.71824002266,1.13625855004,-0.971174503032,1.76591417629
148,7.76928400993,1.16139192395,-0.970937811103,1.74796870855
149,7.82150506973,1.18601866559,-0.96883876929,1.78501162643
150,7.87303304672,1.21343391192,-0.967683718297,1.79453949958
151,7.92441701889,1.24141090758,-0.963819413693,1.75337502627
152,7.97549009323,1.2653079654,-0.961402032188,1.65760700586
153,8.02688002586,1.28812362418,-0.962755864298,1.57706565668
154,8.07869195938,1.31886422966,-0.956649229731,1.80462658018
155,8.13060688972,1.35891274889,-0.945979460086,1.76734122442
156,8.18247509003,1.36971229657,-0.94392363667,1.75910935532
157,8.23418498039,1.39626335892,-0.942561900325,1.74417089362
158,8.2862830162,1.42384609034,-0.937759806803,1.83865698156
159,8.3378469944,1.4561130921,-0.927494156309,1.80288113862
160,8.39097690582,1.5070601896,-0.914975318108,1.77363632394
161,8.4417579174,1.5105331115,-0.913954454925,1.77460708579
162,8.49315094948,1.54749749135,-0.908931449746,1.65219763617
163,8.54513692856,1.57641700332,-0.903550725413,1.66983435176
164,8.5969119072,1.60293763048,-0.894949973135,1.77278373936
165,8.64834690094,1.62973749476,-0.887573574588,1.7305027743
166,8.69958591461,1.65277659193,-0.880319557254,1.74713085882
167,8.75093102455,1.6803676146,-0.872224200031,1.67368753109
168,8.80266094208,1.70575884439,-0.867340797194,1.61953210318
169,8.85399007797,1.73613872071,-0.856224585247,1.54454661556
170,8.9057290554,1.76313011231,-0.852460581651,1.47927906517
171,8.95735311508,1.78967734062,-0.839698592405,1.67387709459
172,9.00876998901,1.81471722849,-0.831615340607,1.73576881126
173,9.06012296677,1.82749292091,-0.827101601198,1.64421782944
174,9.11460399628,1.85458247266,-0.811991383599,1.66391762046
175,9.16657304764,1.87705409015,-0.800827715695,1.64117602984
176,9.22021603584,1.91109427896,-0.795398875384,1.35317208241
177,9.26996207237,1.93879188961,-0.788012850761,1.12872509909
178,9.32545208931,1.96596659805,-0.7780254097,0.905422114551
179,9.37890505791,2.01912580499,-0.767574321056,1.22987099253
180,9.43053603172,2.04443378919,-0.760265263061,1.22384178948
181,9.4831469059,2.08710822646,-0.749943515718,1.3832664979
182,9.5352499485,2.11801306798,-0.740019379242,1.46335494236
183,9.5866689682,2.1526039177,-0.742911792035,1.3298250623
184,9.63982391357,2.18417707195,-0.734409656643,1.29717298186
185,9.69210910797,2.20130183483,-0.72147433057,1.19391356526
186,9.74388694763,2.24418279177,-0.707001739236,1.17158280682
187,9.79680299759,2.27458109815,-0.694201851439,1.26197493899
188,9.84883308411,2.29647658742,-0.688755016858,1.28526076346
189,9.90074110031,2.31357251155,-0.625960006722,1.72986199709
190,9.95264410973,2.34219852874,-0.611528303296,1.97894375848
191,10.0046379566,2.36990796435,-0.59577103195,2.22899345476
192,10.0562241077,2.38702648819,-0.568440286428,2.54813299559
193,10.1079349518,2.41369485782,-0.553283009934,2.82539161552
194,10.1605648994,2.44197105132,-0.536985373041,3.10180336976
195,10.2132480145,2.46887775704,-0.520289194066,-2.90173924948
196,10.2655079365,2.31679970996,-0.215946820976,-1.18523030947
197,10.3163099289,2.32630784534,-0.17367725049,-0.468076228182
198,10.3685250282,2.33653569653,-0.129055134366,0.249902921084
199,10.4198210239,2.41153054573,-0.169099125778,0.212944269109
200,10.4713840485,2.42684853185,-0.131815453028,0.641622134398
201,10.5237669945,2.44369291638,-0.0975382965791,1.06675985553
202,10.5748798847,2.45763026196,-0.0604179493553,1.49267070695
203,10.6276469231,2.4760232614,-0.0254298882352,1.92067215638
204,10.6793320179,2.42480602873,-0.040330708963,2.60910542214
205,10.7321989536,2.43422669907,-0.0071550240576,3.10729333388
206,10.7837259769,2.44457097614,0.0227530420629,-2.68339241347
207,10.8358569145,2.45391083462,0.0538924641017,-2.18865114147
208,10.8879749775,2.46308366878,0.0870036706521,-1.68744953594
209,10.9406449795,2.41008415327,0.00397197514592,-0.585018031713
210,10.9935519695,2.41318528655,0.026194537861,0.0688128153088
211,11.046432972,2.41751786801,0.048911304075,0.722840410362
212,11.0982880592,2.42196949513,0.0682065940236,1.28088638965
213,11.1497559547,2.4837744902,0.108072365669,1.95240435521
214,11.2013380527,2.48531074721,0.112255723253,2.05419786693
215,11.252448082,2.49304636056,0.134165329987,2.55560334219
216,11.3047189713,2.51604147283,0.163434407279,3.11140489666
217,11.3565759659,2.52534456578,0.1868548876,-2.64598075965
218,11.4080181122,2.53606867544,0.208208544846,-2.12121071649
219,11.460119009,2.53465369115,1.28967174563,-1.58055005391
220,11.5119628906,2.54316250975,1.41011477355,-1.04378407122
221,11.5696539879,2.55380626942,1.52924025997,-0.512201851973
222,11.6254560947,2.56424654985,1.66081437718,0.0653544697492
223,11.6774959564,2.5722952578,1.78933163386,0.649012623779
224,11.7289130688,2.43769333665,1.8865871139,1.5575997698
225,11.7805249691,2.43467028168,2.00404919376,2.17912294075
226,11.8329319954,2.4288486841,2.12014611061,2.8001135536
227,11.8838720322,2.42704908506,2.23927863257,-2.85294076138
228,11.9353120327,2.42272027379,2.35584267632,-2.23155146471
229,11.9866991043,2.41777096558,2.47234465759,-1.61088555596
230,12.0385870934,2.41500362176,2.58785614204,-0.992211373562
231,12.0899701118,2.41123033198,2.70511051616,-0.372596213607
232,12.1413609982,2.08601547875,2.71403094289,-2.07752740926
233,12.1927769184,2.05766877979,2.82297441745,-1.83246796531
234,12.2447719574,2.02830800406,2.93137780684,-1.58772185908
235,12.2962450981,2.00146437173,3.03839844006,-1.34370612582
236,12.3474569321,1.97642556106,3.14730225745,-1.09789797518
237,12.3994181156,1.94758383404,3.25547706766,-0.853273407756
238,12.4502398968,1.91999689214,3.36509377181,-0.609636253163
239,12.5020439625,1.8888246558,3.4727101551,-0.363912248438
240,12.5536470413,1.8625179408,3.58039083289,-0.119848481133
241,12.6050009727,1.83570393196,3.68865578844,0.124988617261
242,12.6572329998,1.80590484079,3.7977369773,0.36982296294
243,12.7086451054,1.77906313444,3.90726377618,0.617670517979
244,12.7598650455,1.75071909428,4.01617405876,0.862688797905
245,12.8120748997,1.72324565915,4.12520191876,1.10825712037
246,12.8634819984,1.67599260682,4.29761021842,1.49718040109
247,12.9152789116,1.66554986458,4.34278193339,1.59860523595
248,12.9664719105,1.63821280655,4.44967396648,1.84371308094
249,13.0187559128,1.61186240968,4.55947024384,2.08945657961
250,13.0699710846,1.58352114205,4.66690811239,2.33454150707
251,13.12155509,1.55502546113,4.77703865974,2.58038875904
252,13.1731169224,1.52359739013,4.88593627742,2.82792342386
253,13.2248249054,1.49483616381,4.99359199173,3.07139052579
254,13.2766239643,1.4674696711,5.10206749347,-2.96754283457
255,13.328455925,1.4402351561,5.2116845702,-2.72062157226
256,13.379899025,1.41343918182,5.31994482841,-2.47497337683
257,13.4306349754,1.38543000524,5.42849535216,-2.23042417213
258,13.4820659161,1.35883483005,5.53607553671,-1.98587591544
259,13.5347030163,1.32878290379,5.64556948135,-1.74128390675
260,13.5866119862,1.30242082677,5.75415016272,-1.49414239418
261,13.6378290653,1.27231937763,5.8629606593,-1.2480998692
262,13.6895480156,1.24495736066,5.97120056447,-1.00298885558
263,13.7409598827,1.20016045466,6.14221862002,-0.617816122087
264,13.7918810844,1.18877875949,6.18957479072,-0.512571496315
265,13.8438329697,1.1625384128,6.29764627664,-0.268358006366
266,13.8951981068,1.13216172182,6.40531303103,-0.0243159650211
267,13.9506449699,1.10395331991,6.51507847954,0.222017237142
268,14.0017030239,1.07145172602,6.63047172718,0.482817106631
269,14.0534670353,1.04642232801,6.73855085312,0.72734818382
270,14.1097760201,1.02058632663,6.84656756517,0.972089489353
271,14.1695890427,0.989964233641,6.96175396825,1.2315589924
272,14.2190959454,0.958450544191,7.08432226608,1.50907947291
273,14.2707369328,0.901098665961,7.30359669967,2.00213464977
274,14.3223109245,0.900563281882,7.30550827207,2.00648832471
275,14.3735859394,0.870562168347,7.41347735838,2.25191554342
276,14.4249498844,0.844239499356,7.52161586251,2.4972376637
277,14.4776849747,0.816460525722,7.62900702198,2.74164161414
278,14.528744936,0.787401357516,7.73871702151,2.98824161201
279,14.5803670883,0.762249863847,7.84913168154,-3.04993375284
280,14.6318430901,0.731852084634,7.95545677852,-2.8053634009
281,14.6828210354,0.706016659517,8.06412098145,-2.5591341022
282,14.7345340252,0.675882873052,8.17300517078,-2.31584219457
283,14.7863030434,0.649086668708,8.28157650841,-2.07182960785
284,14.8372929096,0.617816352467,8.38924764607,-1.82541922562
285,14.8892400265,0.575070158368,8.56833235001,-1.42229631873
286,14.9404509068,0.563529233136,8.60702548714,-1.33616401688
287,14.9923050404,0.536329999825,8.71613443229,-1.09115109646
288,15.0442700386,0.491426793071,8.88544986178,-0.708438222536
289,15.0963850021,0.478323350777,8.93304876672,-0.600384824818
290,15.1481089592,0.452303530346,9.04216660479,-0.351401953975
291,15.1990189552,0.425592355172,9.15158448204,-0.106531355458
292,15.2513110638,0.396866297824,9.25987151792,0.137886991846
293,15.3095419407,0.368005392075,9.36983971711,0.385596723266
294,15.3599169254,0.334251658258,9.48651061199,0.652364074682
295,15.4111208916,0.304710062568,9.59669695044,0.900580579928
296,15.4669559002,0.2809856018,9.70595420921,1.14480496265
297,15.5228641033,0.250543343978,9.82003948757,1.40473185222
298,15.5743179321,0.218196117478,9.93882086613,1.67242893743
299,15.6270868778,0.177028870621,10.0972114665,2.03121917974
300,15.6780018806,0.159971423643,10.1592915017,2.1701871637
301,15.7301189899,0.138636396131,10.2679773384,2.4153221127
302,15.7825889587,0.107470832081,10.3775207321,2.66151892177
303,15.8341639042,0.076164404981,10.4880137048,2.91195409631
304,15.8859169483,0.0479223886218,10.5959986852,-3.12555253948
305,15.9381599426,0.0246793010806,10.7053323319,-2.88021358376
306,15.9900720119,-0.00546352645037,10.8150786547,-2.63416113001
307,16.0412890911,-0.0336659779388,10.9247233781,-2.38708289352
308,16.0929210186,-0.0637180400056,11.0327140123,-2.14073908502
309,16.1454410553,-0.104160059039,11.2050593699,-1.7512421103
310,16.1979949474,-0.129894820794,11.3110075006,-1.51383084939
311,16.2495000362,-0.146003353657,11.3621368225,-1.39852488432
312,16.3022758961,-0.175715650638,11.4709440264,-1.15228253736
313,16.353910923,-0.204216354065,11.5744215848,-0.917675193917
314,16.4054179192,-0.230898082171,11.6895249037,-0.657142733068
315,16.457408905,-0.256441515261,11.7999957186,-0.411315435483
316,16.5085830688,-0.296688637857,11.9063676013,-0.163897910548
317,16.5602750778,-0.31460153263,12.0165710357,0.0810862500264
318,16.611399889,-0.343963155383,12.1245125322,0.324930833657
319,16.662801981,-0.37178904211,12.2334311232,0.569332338843
320,16.7191839218,-0.403464224814,12.3393066733,0.8139620692
321,16.7736589909,-0.424853881119,12.4580609121,1.07512907609
322,16.8260130882,-0.458296733007,12.573454285,1.33685024816
323,16.8779940605,-0.484523177124,12.6831264038,1.58449697036
324,16.9302489758,-0.519985953842,12.7926423596,1.83461124941
